t (s),V (mV)
0,25.2886
1.049,25.2619
2.082,25.2222
3.082,25.1877
4.081,25.1535
5.081,25.1173
6.082,25.0807
7.081,25.0444
8.082,25.008
9.081,24.971
10.082,24.9358
11.082,24.8992
12.081,24.8633
13.082,24.8276
14.081,24.7925
15.082,24.7551
16.081,24.7201
17.082,24.6837
18.082,24.6484
19.081,24.6159
20.082,24.5791
21.081,24.545
22.081,24.5111
23.082,24.4751
24.081,24.441
25.082,24.4058
26.081,24.37
27.082,24.336
28.082,24.3023
29.081,24.2679
30.081,24.2333
31.085,24.1944
32.082,24.1636
33.082,24.1291
34.082,24.0945
35.082,24.0599
36.081,24.0261
37.081,23.9907
38.082,23.9581
39.082,23.924
40.081,23.8892
41.081,23.8553
42.082,23.8211
43.082,23.7866
44.081,23.752
45.081,23.7157
46.082,23.6853
47.081,23.6467
48.081,23.6162
49.081,23.5834
50.081,23.5489
51.082,23.5163
52.081,23.4829
53.081,23.4502
54.081,23.418
55.081,23.3849
56.082,23.3522
57.082,23.3201
58.081,23.2902
59.081,23.2556
60.081,23.22
61.082,23.1892
62.082,23.1586
63.082,23.1268
64.081,23.0945
65.081,23.0634
66.082,23.032
67.082,23.0009
68.081,22.9687
69.081,22.9384
70.082,22.9058
71.082,22.8746
72.082,22.8445
73.081,22.8114
74.081,22.7785
75.081,22.7468
76.081,22.7149
77.081,22.6843
78.081,22.6522
79.082,22.6221
80.082,22.59
81.081,22.5577
82.082,22.5264
83.081,22.4949
84.082,22.4637
85.082,22.4322
86.082,22.4006
87.081,22.3699
88.082,22.3377
89.082,22.3075
90.082,22.2761
91.081,22.2448
92.082,22.2139
93.082,22.1833
94.082,22.1512
95.081,22.1204
96.082,22.0899
97.081,22.0589
98.081,22.0283
99.081,21.9982
100.082,21.9681
101.082,21.9379
102.082,21.9077
103.082,21.8768
104.082,21.8451
105.081,21.8149
106.081,21.7853
107.082,21.7562
108.082,21.7251
109.082,21.6954
110.081,21.6652
111.082,21.6352
112.082,21.6067
113.082,21.5749
114.082,21.5443
115.081,21.5152
116.081,21.4859
117.082,21.4552
118.082,21.4252
119.082,21.3959
120.082,21.366
121.082,21.3353
122.081,21.3055
123.081,21.2751
124.081,21.2452
125.081,21.2143
126.081,21.1841
127.081,21.1536
128.082,21.1243
129.082,21.094
130.082,21.0631
131.082,21.0334
132.081,21.0041
133.081,20.9747
134.081,20.9455
135.082,20.918
136.082,20.8878
137.082,20.8588
138.082,20.8307
139.081,20.8028
140.081,20.7763
141.081,20.7495
142.081,20.7224
143.082,20.6928
144.082,20.6653
145.082,20.6383
146.082,20.6096
147.082,20.5813
148.082,20.5535
149.082,20.5267
150.081,20.4965
151.081,20.4665
152.081,20.4409
153.081,20.4116
154.081,20.3803
155.081,20.3519
156.082,20.3254
157.082,20.2971
158.082,20.2667
159.081,20.2379
160.081,20.2084
161.082,20.1812
162.082,20.1524
163.082,20.1244
164.082,20.0966
165.081,20.067
166.081,20.0412
167.082,20.0136
168.082,19.986
169.082,19.9585
170.081,19.9312
171.081,19.9035
172.082,19.877
173.082,19.85
174.081,19.8229
175.081,19.7963
176.081,19.7685
177.081,19.7426
178.081,19.7161
179.081,19.6894
180.081,19.6639
181.082,19.6372
182.082,19.6119
183.082,19.586
184.082,19.5593
185.082,19.5349
186.082,19.5091
187.082,19.482
188.082,19.455
189.082,19.4323
190.082,19.4053
191.082,19.3793
192.081,19.3525
193.082,19.3265
194.082,19.3001
195.082,19.273
196.082,19.2486
197.081,19.2214
198.082,19.1967
199.081,19.1715
200.081,19.1464
201.081,19.1194
202.081,19.0952
203.081,19.0685
204.081,19.0433
205.082,19.0183
206.081,18.9931
207.082,18.9669
208.082,18.9422
209.082,18.9176
210.082,18.8913
211.082,18.8656
212.082,18.8401
213.082,18.8155
214.082,18.7893
215.082,18.7624
216.082,18.7367
217.082,18.7104
218.082,18.685
219.081,18.659
220.082,18.632
221.082,18.6066
222.082,18.5816
223.082,18.5566
224.082,18.5319
225.082,18.5068
226.082,18.4821
227.082,18.4568
228.082,18.4328
229.081,18.4079
230.082,18.3827
231.082,18.3586
232.082,18.3324
233.082,18.3084
234.082,18.2878
235.081,18.2616
236.081,18.2362
237.081,18.2124
238.081,18.1886
239.081,18.1647
240.081,18.1392
241.081,18.1165
242.081,18.0922
243.081,18.067
244.082,18.0443
245.082,18.0201
246.082,17.9965
247.082,17.9709
248.082,17.9473
249.082,17.9237
250.082,17.8996
251.081,17.8745
252.081,17.8502
253.082,17.8253
254.082,17.7999
255.082,17.7745
256.082,17.7487
257.082,17.7238
258.082,17.6986
259.082,17.6747
260.082,17.6514
261.081,17.6278
262.081,17.6046
263.082,17.5804
264.082,17.5555
265.082,17.5316
266.082,17.5087
267.082,17.4849
268.081,17.4605
269.081,17.436
270.082,17.413
271.081,17.3898
272.081,17.3657
273.082,17.3418
274.082,17.3169
275.082,17.2949
276.082,17.2719
277.082,17.2491
278.081,17.2255
279.082,17.2025
280.082,17.1789
281.082,17.1569
282.082,17.1319
283.082,17.1095
284.081,17.086
285.081,17.063
286.081,17.0402
287.082,17.0172
288.082,16.9945
289.082,16.9711
290.082,16.9486
291.082,16.9263
292.082,16.9025
293.082,16.8802
294.082,16.8578
295.082,16.8343
296.082,16.8112
297.082,16.7885
298.082,16.7637
299.082,16.7418
300.082,16.7198
301.081,16.6962
302.081,16.6743
303.082,16.6506
304.082,16.628
305.081,16.6049
306.081,16.5826
307.082,16.5598
308.082,16.5373
309.082,16.5149
310.082,16.4921
311.081,16.4695
312.082,16.4479
313.082,16.4257
314.082,16.4029
315.081,16.3827
316.082,16.36
317.082,16.3387
318.081,16.318
319.082,16.2955
320.082,16.2738
321.082,16.2508
322.082,16.2292
323.082,16.207
324.082,16.1857
325.082,16.1639
326.081,16.1419
327.082,16.1201
328.082,16.0974
329.082,16.0758
330.081,16.0543
331.082,16.031
332.082,16.0099
333.082,15.9879
334.081,15.9675
335.081,15.9456
336.082,15.9235
337.082,15.9017
338.082,15.8809
339.081,15.8595
340.081,15.8385
341.082,15.8164
342.082,15.793
343.082,15.7729
344.082,15.754
345.081,15.7317
346.082,15.7117
347.082,15.6905
348.081,15.6696
349.081,15.6478
350.082,15.6263
351.082,15.6058
352.082,15.5842
353.081,15.5634
354.082,15.5427
355.081,15.522
356.082,15.5013
357.082,15.4799
358.081,15.4603
359.082,15.4382
360.082,15.4177
361.081,15.3994
362.081,15.3773
363.082,15.3577
364.082,15.3365
365.081,15.3176
366.082,15.2976
367.082,15.2772
368.082,15.2582
369.082,15.2377
370.081,15.2192
371.082,15.1999
372.082,15.1782
373.082,15.1577
374.082,15.1368
375.081,15.1183
376.081,15.098
377.081,15.0783
378.081,15.0582
379.081,15.0384
380.081,15.0167
381.081,14.9977
382.081,14.977
383.081,14.955
384.081,14.9333
385.081,14.9182
386.082,14.8973
387.082,14.8774
388.082,14.8556
389.082,14.8358
390.082,14.8178
391.082,14.7973
392.082,14.7754
393.082,14.7567
394.082,14.7369
395.082,14.7165
396.082,14.6974
397.082,14.6777
398.082,14.6585
399.082,14.639
400.082,14.6184
401.081,14.5992
402.081,14.579
403.082,14.5598
404.082,14.5405
405.081,14.5194
406.081,14.4998
407.081,14.4795
408.082,14.4604
409.082,14.4415
410.082,14.4209
411.081,14.4003
412.082,14.3823
413.081,14.361
414.081,14.3425
415.082,14.3225
416.082,14.3035
417.082,14.2842
418.081,14.2654
419.082,14.2459
420.082,14.227
421.082,14.2078
422.082,14.1899
423.082,14.171
424.081,14.1507
425.082,14.1334
426.082,14.1147
427.082,14.096
428.082,14.0765
429.082,14.0578
430.082,14.0388
431.082,14.0211
432.082,14.0019
433.082,13.984
434.082,13.9651
435.082,13.9465
436.082,13.9286
437.082,13.9107
438.082,13.8924
439.082,13.8749
440.082,13.8576
441.082,13.8389
442.082,13.8207
443.082,13.803
444.081,13.7884
445.081,13.771
446.082,13.7541
447.082,13.7366
448.082,13.7194
449.082,13.7013
450.082,13.6845
451.081,13.6687
452.082,13.6491
453.082,13.632
454.082,13.6144
455.081,13.5957
456.081,13.5783
457.082,13.5594
458.082,13.542
